time,eggs,larvae,pupae,host.seeking.adults,resting.adults,ovipositn.adults,total.adults,temperature,rainfall
1,100,100,100,30,30,40,100,6.4314,41.0054
2,115.88807991066338,50.592149542192075,75.11594142725642,5.4030384891337455,29.260457712086673,42.39415944376583,77.05765564498626,6.3315430138691795,39.77839444296473
3,126.23451130729202,37.328690604955696,56.11339380065967,2.4000693881501958,17.164089455434315,39.51808652697946,59.08224537056397,6.268808549382314,38.96122710180016
4,127.81300074553398,32.31381831022443,42.033035350229106,1.6354581072173189,10.031077177116025,33.418654979288256,45.0851902636216,6.20923452321458,38.14625093917398
5,121.73005227015828,29.808639796452635,31.69268079892406,1.2084084778286068,6.203902039607779,26.859069980353848,34.27138049779023,6.152838603935308,37.33478956198357
6,110.69680591196476,27.961795384048706,24.11118926059041,0.9069624922626228,4.06896920424647,20.999828507264432,25.975760203773525,6.099637502867552,36.528160678540615
7,97.25461365696825,26.16288896267183,18.537602538650123,0.6867274895653459,2.801410538144591,16.16192941892835,19.650067446638285,6.049646984632318,35.727674149680496
8,83.25875303082981,24.266923705025402,14.416790954941188,0.5248204367937809,2.0020058147645448,12.323554485032574,14.8503807365909,6.002881862562731,34.93462986280883
9,69.88034504931434,22.29254594563883,11.34584187128129,0.4051739457754765,1.4717713452297203,9.345984663850924,11.22292995485612,5.959355994112876,34.15031561860252
10,57.75992534545873,20.301010005434723,9.03514409168929,0.31613357602258557,1.106017336287357,7.067423341139421,8.489574253449364,5.919082276945339,33.37600504201481
11,47.173145467266494,18.35184490705117,7.277446543840364,0.24929140562648086,0.8461001263916065,5.338727108422611,6.4341186404406985,5.882072645039365,32.612955513514294
12,38.16561570224857,16.490021118425187,5.924589533921286,0.1986134435864265,0.6570965243773031,4.034423595275414,4.890133563239144,5.84833806514699,31.862406126803137
13,30.65038104363095,14.744882566813716,4.870514967054383,0.15977735840526924,0.5170764959043701,3.053687980629857,3.7305418349394963,5.817888533550104,31.125575677074835
14,24.473462442886827,13.132771954793231,4.039061538691398,0.1296837737448195,0.41167967453154136,2.317615778776865,2.858979227053226,5.790733072913383,30.403660676843003
15,19.455384083195682,11.660294064624143,3.375280844169862,0.1061045102015811,0.3312040954002273,1.7654864917177313,2.2027950973195396,5.766879730315964,29.69783343074664
16,15.415929180477209,10.327213884511592,2.8392780768449377,0.08742936595639215,0.2689431403395244,1.3511016161965173,1.707474122492434,5.746335573708265,29.00924010242045
17,12.187647017197232,9.1287438050121,2.401867176664548,0.07248677212595545,0.22018155284790916,1.039599616736786,1.3322679417106507,5.729106691006152,28.338998885368483
18,9.62221998650737,8.057254859917572,2.04150047946405,0.06041898900123017,0.1815555783738761,0.8048325416163409,1.0468071089914472,5.715198187580484,27.688198167383575
19,7.5924593287704925,7.103514009453108,1.7421034010551035,0.05059094513518076,0.1506379776983562,0.6272757795283046,0.8285047023618416,5.704614184943878,27.057894769861946
20,5.991804193877563,6.2575542890249345,1.4915444606091812,0.0425265036916489,0.12565799874667116,0.49239742423311605,0.6605819266714361,5.697357819433776,26.449112227128694
21,4.732510747850609,5.509271275933772,1.280552701616443,0.03586735052133995,0.10530514892585287,0.38940549231924637,0.5305779917664392,5.693431240081651,25.86283908195469
22,3.743296466055943,4.848816223106866,1.1019520261281524,0.03033972955289511,0.08859912338517142,0.3102971527647195,0.429236005702786,5.6928356114959655,25.300027400271574
23,2.966858881943523,4.266846376232708,0.9501137273902887,0.02572908011547964,0.07480128452027036,0.24913825277526666,0.3496686174110167,5.69557110937231,24.761591489225452
24,2.357494568414759,3.7546677209588624,0.8205638830820894,0.021868565915862438,0.06334346888667361,0.2015248509811169,0.2867368857836529,5.701636924538519,24.248404332752443
25,1.8790260281050148,3.304308984306355,0.7097060503549198,0.018625846696979653,0.05378533006907512,0.1641876211094458,0.23659879787550056,5.711031257946075,23.761301083023568
26,1.5029344861325664,2.9085411019207217,0.6146132340416207,0.015895106453385273,0.045780515164598544,0.13469002581301884,0.19636564743100265,5.723751325418135,23.301071634844334
27,1.2068502901858718,2.5608658802241027,0.5328808397395441,0.013589358693694617,0.03905592447665163,0.1112119460491499,0.16385722921949614,5.7397933630954014,22.868463814827123
28,0.9732679363362451,2.2554809049754763,0.4625148882780644,0.011639404742806626,0.03339013499116922,0.09238762354172161,0.13741716327569747,5.759152610687607,22.464179826273494
29,0.7885299043314127,1.9872341017016522,0.4018499320056371,0.00998733706935825,0.02860529140124641,0.07718728480964769,0.11577991328025235,5.781823330983229,22.08887653410875
30,0.6419904737527948,1.751569059053903,0.349485422278694,0.00858546844263512,0.024555966436791952,0.0648297503665989,0.09797118524602597,5.807798817184192,21.743162350283797
31,0.525369653660231,1.5444721098204723,0.30423828157549715,0.007394193043330137,0.021122767331779594,0.054719413570906796,0.08323637394601652,5.837071357244582,21.427600151935962
32,0.4322199054058977,1.3624148661865982,0.2651039047709987,0.006380545730707768,0.018206877464131962,0.046398255443557794,0.07098567863839753,5.869632284306363,21.14270135376148
33,0.35752829506911776,1.2023033017377283,0.23122701957716296,0.005516869036239343,0.015726418548661424,0.039512144744863066,0.06075543232976383,5.9054719592444656,20.888929394812635
34,0.2973822058763794,1.061426495102131,0.20187649692450207,0.004779744594605687,0.013613315664472233,0.03378414345349366,0.052177203712571583,5.944579741030282,20.66669530458455
35,0.24873888558981194,0.9374131805489158,0.17642713264587134,0.0041500458009645245,0.011810057187586013,0.02899753039821415,0.04495763338676469,5.986944057251748,20.476360767158894
36,0.20921938398620848,0.8281898617755991,0.1543425902985592,0.0036112175980505005,0.010268973901721776,0.024980338219358526,0.0388605297191308,6.03255234873231,20.31823457718224
37,0.17696391595139155,0.7319442996179326,0.13516246814698524,0.0031495453733714797,0.008949739840365874,0.02159566066316727,0.03369494587690462,6.081391103670882,20.192573657715002
38,0.15051217909945083,0.647092480772696,0.11849087622885708,0.0027531492993360667,0.00781880688635865,0.018733314687173833,0.02930527087286855,6.133445846640257,20.09958189247459
39,0.128717280234388,0.5722498453731499,0.10398733722046741,0.0024124266129386803,0.006847375536324282,0.01630452927683109,0.02556433142609405,6.18870115493749,20.039410397127767
40,0.11067415878720216,0.5062056943231086,0.09135867557316385,0.002118907819023209,0.006011616208194711,0.014236964539016865,0.022367488566234786,6.2471406548835375,20.01215687497256
41,0.09566637452353055,0.44790087081581165,0.08035232305374848,0.0018655719953139726,0.005291222659803222,0.012471497289820872,0.019628291944938068,6.308747028830197,20.017865540417915
42,0.08312561946042883,0.39640831331320914,0.07075065232947719,0.0016465506378098703,0.004668955564769911,0.010959616394106846,0.017275122596686628,6.373502022034359,20.05652714447797
43,0.07259887239223484,0.35091598011909053,0.06236601509781026,0.0014567576896533424,0.004130392674446406,0.00966123012721773,0.015248380491317479,6.441386446317466,20.12807891618968
44,0.06372332545196623,0.31071203006427667,0.055036531663680714,0.0012918984989777791,0.0036633068931106044,0.008543084296098017,0.0134982896881864,6.512380185835923,20.232404657949473
45,0.0562075040786514,0.2751719347404961,0.048622527717197,0.0011484040116442175,0.003257252494370916,0.007577534567298521,0.011983191073313654,6.586462203455369,20.369334950690472
46,0.049816527626362836,0.24374741094256588,0.043003466573784344,0.001023221124898865,0.002903416866406284,0.006741512913910961,0.01066815090521611,6.663610547276335,20.538647440692102
47,0.044360136855066054,0.2159567071061993,0.038075282032776235,9.137542596141172e-4,0.0025943336312375157,0.006015703706467658,0.009523791597319291,6.743802356870333,20.74006720527086
48,0.0396833305749436,0.19137605855107714,0.03374806162606577,8.177577244425797e-4,0.0023237169086180753,0.005383860229239038,0.008525334862299692,6.827013869385496,20.973267151583286
49,0.035659376218982845,0.1696323951531862,0.029944102485237732,7.333791266489241e-4,0.002086152059816508,0.004832320951890231,0.007651852138355663,6.913220427224076,21.237868578785083
50,0.03218436435117334,0.1503970671256906,0.026596238546545203,6.590357190670181e-4,0.001877047609400292,0.004349563648864282,0.006885646977331591,7.0023964855998315,21.533441810149498
51,0.029172749189322673,0.13338034900881535,0.023646384351633173,5.933606230906312e-4,0.0016925243320088383,0.003925845816201387,0.006211730771300856,7.094515619941035,21.859506887216185
52,0.026553716827321935,0.11832659481301219,0.021044265412393463,5.351909636218637e-4,0.0015292747611117857,0.0035529131558355532,0.005617378880569203,7.189550533316037,22.21553431786765
53,0.02426841055064601,0.10501006350773232,0.01874634031986081,4.835465685834046e-4,0.0013844630314869492,0.003223762317989758,0.005091771918060112,7.287473064943526,22.60094597476086
54,0.022267716807688798,0.09323125945620298,0.016714864136902582,4.375891609304896e-4,0.0012556698413292652,0.0029324371861705572,0.004625696188430312,7.388254198042205,23.015115978327685
55,0.020510538349741727,0.0828137891767419,0.014917093432870189,3.965960904456053e-4,0.0011408362669865246,0.002673865170852308,0.004211297528284438,7.491864068926077,23.45737176207922
56,0.01896237788020248,0.07360161046966861,0.01332459821924828,3.5994773705202185e-4,0.0010382025581751552,0.0024437213588602118,0.0038418716540873886,7.598271975842124,23.92699516701282
57,0.017594167480354105,0.06545661026933315,0.01191266435787883,3.271162511193118e-4,9.462565072454206e-4,0.0022383129248668755,0.003511685683231608,7.707446387909727,24.423223593493958
58,0.016381323946417902,0.05825648119598984,0.010659778440448799,2.976492412023284e-4,8.636990630168974e-4,0.002054480624075582,0.0032158289282948078,7.819354954388814,24.94525123102767
59,0.015302998490480165,0.05189286999900748,0.009547187086595375,2.71155395439264e-4,7.894164424893614e-4,0.0018895171723836027,0.002950089010312228,7.9339645143168696,25.492230370548214
60,0.014341471912077543,0.046269760189021146,0.008558519432430873,2.4729604935501664e-4,7.22451456834258e-4,0.0017411000029348854,0.00271084750912416,8.051241106394684,26.06327278704157
61,0.01348165187268483,0.04130205086703979,0.007679461979468628,2.2577910784511146e-4,6.619774316441808e-4,0.0016072342859952489,0.0024949908254845413,8.171149979051904,26.657451182648856
62,0.012710651470362513,0.036914304057298716,0.00689747826459014,2.0635188639038973e-4,6.072786655838678e-4,0.001486203765100118,0.0022998343170743756,8.293655600713976,27.27380068979187
63,0.012017442467762084,0.0330396416498176,0.006201568170702535,1.8879408476979315e-4,5.577353094645178e-4,0.0013765290411350255,0.0021230584353693367,8.418721670319599,27.91132043650964
64,0.011392573685572976,0.02961877510467475,0.005582061962917492,1.7291284834634e-4,5.128092833904384e-4,0.0012769328232819846,0.001962654955018763,8.546311128085904,28.568975172473984
65,0.010827938239293844,0.026599150499980462,0.005030443894387298,1.585393048317586e-4,4.7203126199673413e-4,0.0011863106438774894,0.0018168812107059822,8.676386166500777,29.245696951156788
66,0.010316575840804053,0.023934192935112432,0.0045392007780493526,1.45525152232182e-4,4.349901729786637e-4,0.0011037056238679982,0.0016842209490788439,8.808908241526069,29.940386864113407
67,0.00985250644691553,0.021582637572642636,0.004101692075707558,1.3373938564548008e-4,4.013250689001831e-4,0.0010282868719030836,0.0015633513264487467,8.943838084012953,30.651916824970385
68,0.009430586906378727,0.019507937793954558,0.0037120381241155863,1.2306537132655268e-4,3.7071779803193384e-4,9.593309124537655e-4,0.001453114081812252,9.081135711336572,31.37913140104274
69,0.009046395389577654,0.01767774057328405,0.0033650247179244823,1.1339922792080807e-4,3.4288642405986425e-4,8.962062212875921e-4,0.0013524918732682645,9.22076043924551,32.12084968975569
70,0.008696134415582951,0.016063421178779156,0.003056021313313418,1.0464827246783865e-4,3.1758002157053847e-4,8.383600578741148e-4,0.001260588351912492,9.362670893919471,32.87586723646223
71,0.008376546088367414,0.014639670113173362,0.0027809105468326574,9.672925427077161e-5,2.945745832025496e-4,7.853071160898294e-4,0.0011766109535631506,9.506825024228363,33.64295799032561
72,0.008084838092872608,0.013384126019419946,0.0025360273891585094,8.956696684390474e-5,2.7366927195014744e-4,7.366198055354851e-4,0.0010998560443295372,9.653180114192594,34.42087629517664
73,0.007818621163043613,0.012277049115412181,0.002318106676812279,8.309340374252703e-5,2.546830367041558e-4,6.91919988496324e-4,0.0010296964289430068,9.801692795640463,35.20835891225806
74,0.007575856604061697,0.011301030551134478,0.002124237819974184,7.724701436652623e-5,2.37452028116692e-4,6.508719453274621e-4,9.655709878106803e-4,9.952319061058972,36.00412707158989
75,0.007354811090546201,0.010440733677463834,0.0019518255169354418,7.197188569352527e-5,0.00022182767370791301,6.131764144540872e-4,9.069759738555255e-4,10.105014276634904,36.80688854855839
76,0.007154017170151465,0.009682663650157847,0.001798555494085596,6.721708517296992e-5,2.0767492949006944e-4,5.785655845539554e-4,8.534575992169948e-4,10.259733195480521,37.61533976231999
77,0.006972239166792658,0.009014962216580075,0.0016623645257379694,6.293624075547518e-5,1.9487065458746475e-4,5.467988626843319e-4,8.046057580272718e-4,10.416429971041111,38.428167892634974
78,0.006808444046156209,0.008427224938078244,0.001541414134174994,5.908717077582481e-5,1.833023602905837e-4,5.176592644484985e-4,7.60048795514907e-4,10.575058170680222,39.244053011706
79,0.00666177647260556,0.00791033844228924,0.001434067433681103,5.563148480831516e-5,1.7286730968268815e-4,4.909503732393884e-4,7.194491677303917e-4,10.735570789438952,40.06167022758018
80,0.00653153751453675,0.007456335601952736,0.0013388686424909617,5.253425592526094e-5,1.634717132420395e-4,4.664938354636825e-4,6.82499804630983e-4,10.89792026396401,40.879691835606536
81,0.006417166610842258,0.0070582668022799635,0.001254524874509266,4.9763795046545686e-5,1.550299558120832e-4,4.4412729073346215e-4,6.489210415920911e-4,11.062058486602496,41.69678947445527
82,0.006318226331306678,0.006710085658292521,0.0011798899085747085,4.72914414716371e-5,1.4746397741811795e-4,4.237026249622979e-4,6.18458043852053e-4,11.227936819656406,42.51163628320273
83,0.00623438966208309,0.00640654771301437,0.001113949689486347,4.509133681785449e-5,1.4070281750786819e-4,4.050845041699144e-4,5.908786584956371e-4,11.39550610979586,43.32290905598211
84,0.006165429839262136,0.006143120840200845,0.0010558093500205876,4.3140231574448755e-5,1.3468220197243496e-4,3.8814918128648974e-4,5.659716148333734e-4,11.564716702623855,44.12929039069695
85,0.006111212589788781,0.005915906253917276,0.001004681576604666,4.1417336722861786e-5,1.293441309348201e-4,3.7278353184786264e-4,5.435449995055445e-4,11.73551845738973,44.92947082831506
86,0.006071690356648473,0.005721569138451034,9.598761771715432e-4,3.990417899138148e-5,1.2463652550540763e-4,3.5888425309425005e-4,5.234249575910392e-4,11.907860761847473,45.72215097926073
87,0.0060468984611537595,0.005557278003204815,9.207907570280856e-4,3.8584451849149475e-5,1.2051295085752885e-4,3.4635719753180807e-4,5.054546002384864e-4,12.081692547252601,46.5060436334511
88,0.006036952654519697,0.0054206519990739445,8.869023269741631e-4,3.744387250739302e-5,1.1693234561562048e-4,3.3511682144296817e-4,4.894930395659817e-4,12.256962303495584,47.27987585056553
89,0.0060420491478391765,0.005309715496451584,8.577598920599265e-4,3.647008036435973e-5,1.1385876184491511e-4,3.2508575048609343e-4,4.754145926953683e-4,12.433618094365215,48.042391027129725
90,0.006062466523529012,0.005222859389081921,8.32977910965397e-4,3.565253842050859e-5,1.1126114466689919e-4,3.161944288985299e-4,4.631081119859377e-4,12.611607572937942,48.792350937081665
91,0.00609856913614898,0.0051588086339125665,8.122305430997695e-4,3.498242985417422e-5,1.0911315042220187e-4,3.08380832653547e-4,4.5247641292992305e-4,12.790877997089865,49.528537742487515
92,0.006150812101110962,0.005116595575868309,7.952466474230785e-4,3.445257107022991e-5,1.073929802479836e-4,3.0159024171561336e-4,4.4343579303382687e-4,12.971376245125612,50.249755971156446
93,0.006219748220507465,0.005095538690917504,7.818055278842524e-4,3.4057350014886286e-5,1.0608323266620142e-4,2.957750686152033e-4,4.35915651296291e-4,13.15304883151839,50.95483445792979
94,0.0063060369695090235,0.005095226488299745,7.717334105783039e-4,3.379267829912709e-5,1.0517079785895926e-4,2.9089473823003476e-4,4.298582143881211e-4,13.335841922760324,51.642628246503136
95,0.006410455505368833,0.005115506393716061,7.649006278553475e-4,3.365595336009021e-5,1.0464679935042095e-4,2.86915617384676e-4,4.2521837009518713e-4,13.519701353313621,52.312020448687235
96,0.006533911799130877,0.005156478496820041,7.612194964325595e-4,3.364604036444674e-5,1.045065747564482e-4,2.838109970007373e-4,4.219636121216322e-4,13.704572641660548,52.96192405808961
97,0.006677460176809375,0.00521849412189361,7.606428971040932e-4,3.376327938714901e-5,1.0474969939727874e-4,2.815611297749251e-4,4.200741085593529e-4,13.890401006448997,53.59128371527504
98,0.006842319604229338,0.005302159276368895,7.631635766305842e-4,3.4009515104244556e-5,0.00010538006895399311,2.8015332751289994e-4,4.195429115711376e-4,14.077131382723678,54.19907742152782
99,0.007029895062550299,0.005408343136154534,7.68814199261254e-4,3.438814941963559e-5,1.0640605160877037e-4,2.795821264661059e-4,4.2037632749451184e-4,14.264708438244156,54.784318198449
100,0.0072418024507311775,0.005538191838461041,7.776681861419066e-4,3.490422357677655e-5,1.0784071298897516e-4,2.798495321269219e-4,4.225944686926736e-4,14.45307658988088,55.34605569068344
101,0.007479897578511295,0.005693147978492396,7.898413992736765e-4,3.556453503361216e-5,1.0970212277648085e-4,2.809653554381609e-4,4.2623201324825386e-4,14.642180020084766,55.88337770916678
102,0.0077463098766282126,0.005874976258768851,8.054947351017048e-4,3.637779090912441e-5,1.1201375825902619e-4,2.829476523070564e-4,4.3133920147520695e-4,14.831962691195827,56.39541166253366
103,0.00806368458042269,0.006097131027424032,8.294395604714197e-4,3.637993608394226e-5,1.1418111945431159e-4,2.8574703067910155e-4,4.363080862173554e-4,15.022368245912276,56.88132428929339
104,0.008496349379679927,0.006408132300494786,8.695681634451329e-4,3.869274421848275e-5,1.169533313031416e-4,2.8907813831017246e-4,4.447242138317968e-4,15.213340053603815,57.34032450243831
105,0.00902906424971993,0.0068198789258558535,9.249066391957333e-4,4.225742378777108e-5,1.232678336433907e-4,2.938918542311707e-4,4.5941711166233253e-4,15.404820837541138,57.77165860820014
106,0.009659868167196344,0.007339544787719333,9.961586524034275e-4,4.6627184494190195e-5,1.3295601939170538e-4,3.01496049106202e-4,4.810792529920976e-4,15.596755469973687,58.17464732681174
107,0.010405606020999483,0.007977790800543337,0.001084649741440678,5.204761429178676e-5,1.4579770420000606e-4,3.128618969395114e-4,5.107072154313042e-4,15.78908745197873,58.54863975949729
108,0.011294536929103528,0.008750520039382625,0.0011923474436775397,5.8692612583382444e-5,1.6205879239474774e-4,3.287776487368813e-4,5.495290537150115e-4,15.981758960744855,58.89301733921502
109,0.01236323033543171,0.009680237026973505,0.001321945533091139,6.677712226968693e-5,1.822188296011815e-4,3.500536792098586e-4,5.990496310807271e-4,16.174714284831452,59.20723544439534
